# === DATA DESCRIPTION FILE ======================================================
#
# CAUTION - Investigational device.
# Limited by Federal Law to investigational use.
#
# Dataset name: E:\\Export\Test_SWIp_2014_02_04_WIP_mSWIp_full_SENSE_7_1
#
# CLINICAL TRYOUT             Research image export tool     V4.2
#
# === GENERAL INFORMATION ========================================================
#
.    Patient name                       :   Test_SWIp_2014_02_04
.    Examination name                   :   none
.    Protocol name                      :   WIP mSWIp_full SENSE
.    Examination date/time              :   2014.02.04 / 15:55:17
.    Series Type                        :   Image   MRSERIES
.    Acquisition nr                     :   7
.    Reconstruction nr                  :   1
.    Scan Duration [sec]                :   294
.    Max. number of cardiac phases      :   1
.    Max. number of echoes              :   3
.    Max. number of slices/locations    :   100
.    Max. number of dynamics            :   1
.    Max. number of mixes               :   1
.    Patient position                   :   Head First Supine
.    Preparation direction              :   Right-Left
.    Technique                          :   T1FFE
.    Scan resolution  (x, y)            :   384  382
.    Scan mode                          :   3D
.    Repetition time [ms]               :   28.997  
.    FOV (ap,fh,rl) [mm]                :   230.000  100.000  179.688
.    Water Fat shift [pixels]           :   1.702
.    Angulation midslice(ap,fh,rl)[degr]:   -5.415  -0.729  4.323
.    Off Centre midslice(ap,fh,rl) [mm] :   -13.524  51.012  -1.639
.    Flow compensation <0=no 1=yes> ?   :   1
.    Presaturation     <0=no 1=yes> ?   :   0
.    Phase encoding velocity [cm/sec]   :   0.000000  0.000000  0.000000
.    MTC               <0=no 1=yes> ?   :   0
.    SPIR              <0=no 1=yes> ?   :   0
.    EPI factor        <0,1=no EPI>     :   1
.    Dynamic scan      <0=no 1=yes> ?   :   0
.    Diffusion         <0=no 1=yes> ?   :   0
.    Diffusion echo time [ms]           :   0.0000
.    Max. number of diffusion values    :   1
.    Max. number of gradient orients    :   1
.    Number of label types   <0=no ASL> :   0
#
# === PIXEL VALUES =============================================================
#  PV = pixel value in REC file, FP = floating point value, DV = displayed value on console
#  RS = rescale slope,           RI = rescale intercept,    SS = scale slope
#  DV = PV * RS + RI             FP = DV / (RS * SS)
#
# === IMAGE INFORMATION DEFINITION =============================================
#  The rest of this file contains ONE line per image, this line contains the following information:
#
#  slice number                             (integer)
#  echo number                              (integer)
#  dynamic scan number                      (integer)
#  cardiac phase number                     (integer)
#  image_type_mr                            (integer)
#  scanning sequence                        (integer)
#  index in REC file (in images)            (integer)
#  image pixel size (in bits)               (integer)
#  scan percentage                          (integer)
#  recon resolution (x y)                   (2*integer)
#  rescale intercept                        (float)
#  rescale slope                            (float)
#  scale slope                              (float)
#  window center                            (integer)
#  window width                             (integer)
#  image angulation (ap,fh,rl in degrees )  (3*float)
#  image offcentre (ap,fh,rl in mm )        (3*float)
#  slice thickness (in mm )                 (float)
#  slice gap (in mm )                       (float)
#  image_display_orientation                (integer)
#  slice orientation ( TRA/SAG/COR )        (integer)
#  fmri_status_indication                   (integer)
#  image_type_ed_es  (end diast/end syst)   (integer)
#  pixel spacing (x,y) (in mm)              (2*float)
#  echo_time                                (float)
#  dyn_scan_begin_time                      (float)
#  trigger_time                             (float)
#  diffusion_b_factor                       (float)
#  number of averages                       (integer)
#  image_flip_angle (in degrees)            (float)
#  cardiac frequency   (bpm)                (integer)
#  minimum RR-interval (in ms)              (integer)
#  maximum RR-interval (in ms)              (integer)
#  TURBO factor  <0=no turbo>               (integer)
#  Inversion delay (in ms)                  (float)
#  diffusion b value number    (imagekey!)  (integer)
#  gradient orientation number (imagekey!)  (integer)
#  contrast type                            (string)
#  diffusion anisotropy type                (string)
#  diffusion (ap, fh, rl)                   (3*float)
#  label type (ASL)            (imagekey!)  (integer)
#
# === IMAGE INFORMATION ==========================================================
#  sl ec  dyn ph ty    idx pix scan% rec size                (re)scale              window        angulation              offcentre        thick   gap   info      spacing     echo     dtime   ttime    diff  avg  flip    freq   RR-int  turbo delay b grad cont anis         diffusion       L.ty

  1   1    1  1 0 2     0  16    78  512  512     0.00000   6.32039 6.72553e-004  1066  1854  -5.42  -0.73   4.32   -9.81    1.87    3.03  2.000 -1.000 0 1 0 2  0.449  0.449   6.68    0.00     0.00    0.00   1   15.00     0    0    0     3   0.0  1   1    7    0   0.000    0.000    0.000  1
  2   1    1  1 0 2     1  16    78  512  512     0.00000   6.32039 6.72553e-004  1084  1885  -5.42  -0.73   4.32   -9.88    2.87    2.94  2.000 -1.000 0 1 0 2  0.449  0.449   6.68    0.00     0.00    0.00   1   15.00     0    0    0     3   0.0  1   1    7    0   0.000    0.000    0.000  1
  3   1    1  1 0 2     2  16    78  512  512     0.00000   6.32039 6.72553e-004  1092  1898  -5.42  -0.73   4.32   -9.96    3.86    2.84  2.000 -1.000 0 1 0 2  0.449  0.449   6.68    0.00     0.00    0.00   1   15.00     0    0    0     3   0.0  1   1    7    0   0.000    0.000    0.000  1
  4   1    1  1 0 2     3  16    78  512  512     0.00000   6.32039 6.72553e-004  1127  1959  -5.42  -0.73   4.32  -10.03    4.85    2.75  2.000 -1.000 0 1 0 2  0.449  0.449   6.68    0.00     0.00    0.00   1   15.00     0    0    0     3   0.0  1   1    7    0   0.000    0.000    0.000  1
  5   1    1  1 0 2     4  16    78  512  512     0.00000   6.32039 6.72553e-004  1219  2119  -5.42  -0.73   4.32  -10.11    5.84    2.66  2.000 -1.000 0 1 0 2  0.449  0.449   6.68    0.00     0.00    0.00   1   15.00     0    0    0     3   0.0  1   1    7    0   0.000    0.000    0.000  1
  6   1    1  1 0 2     5  16    78  512  512     0.00000   6.32039 6.72553e-004  1289  2242  -5.42  -0.73   4.32  -10.19    6.84    2.56  2.000 -1.000 0 1 0 2  0.449  0.449   6.68    0.00     0.00    0.00   1   15.00     0    0    0     3   0.0  1   1    7    0   0.000    0.000    0.000  1
  7   1    1  1 0 2     6  16    78  512  512     0.00000   6.32039 6.72553e-004  1365  2372  -5.42  -0.73   4.32  -10.26    7.83    2.47  2.000 -1.000 0 1 0 2  0.449  0.449   6.68    0.00     0.00    0.00   1   15.00     0    0    0     3   0.0  1   1    7    0   0.000    0.000    0.000  1
  8   1    1  1 0 2     7  16    78  512  512     0.00000   6.32039 6.72553e-004  1417  2462  -5.42  -0.73   4.32  -10.34    8.82    2.37  2.000 -1.000 0 1 0 2  0.449  0.449   6.68    0.00     0.00    0.00   1   15.00     0    0    0     3   0.0  1   1    7    0   0.000    0.000    0.000  1
  9   1    1  1 0 2     8  16    78  512  512     0.00000   6.32039 6.72553e-004  1432  2490  -5.42  -0.73   4.32  -10.41    9.81    2.28  2.000 -1.000 0 1 0 2  0.449  0.449   6.68    0.00     0.00    0.00   1   15.00     0    0    0     3   0.0  1   1    7    0   0.000    0.000    0.000  1
 10   1    1  1 0 2     9  16    78  512  512     0.00000   6.32039 6.72553e-004  1507  2620  -5.42  -0.73   4.32  -10.49   10.81    2.18  2.000 -1.000 0 1 0 2  0.449  0.449   6.68    0.00     0.00    0.00   1   15.00     0    0    0     3   0.0  1   1    7    0   0.000    0.000    0.000  1
 11   1    1  1 0 2    10  16    78  512  512     0.00000   6.32039 6.72553e-004  1723  2995  -5.42  -0.73   4.32  -10.56   11.80    2.09  2.000 -1.000 0 1 0 2  0.449  0.449   6.68    0.00     0.00    0.00   1   15.00     0    0    0     3   0.0  1   1    7    0   0.000    0.000    0.000  1
 12   1    1  1 0 2    11  16    78  512  512     0.00000   6.32039 6.72553e-004  2051  3566  -5.42  -0.73   4.32  -10.64   12.79    1.99  2.000 -1.000 0 1 0 2  0.449  0.449   6.68    0.00     0.00    0.00   1   15.00     0    0    0     3   0.0  1   1    7    0   0.000    0.000    0.000  1
 13   1    1  1 0 2    12  16    78  512  512     0.00000   6.32039 6.72553e-004  2303  4003  -5.42  -0.73   4.32  -10.71   13.79    1.90  2.000 -1.000 0 1 0 2  0.449  0.449   6.68    0.00     0.00    0.00   1   15.00     0    0    0     3   0.0  1   1    7    0   0.000    0.000    0.000  1
 14   1    1  1 0 2    13  16    78  512  512     0.00000   6.32039 6.72553e-004  2323  4038  -5.42  -0.73   4.32  -10.79   14.78    1.81  2.000 -1.000 0 1 0 2  0.449  0.449   6.68    0.00     0.00    0.00   1   15.00     0    0    0     3   0.0  1   1    7    0   0.000    0.000    0.000  1
 15   1    1  1 0 2    14  16    78  512  512     0.00000   6.32039 6.72553e-004  2239  3891  -5.42  -0.73   4.32  -10.86   15.77    1.71  2.000 -1.000 0 1 0 2  0.449  0.449   6.68    0.00     0.00    0.00   1   15.00     0    0    0     3   0.0  1   1    7    0   0.000    0.000    0.000  1
 16   1    1  1 0 2    15  16    78  512  512     0.00000   6.32039 6.72553e-004  2271  3947  -5.42  -0.73   4.32  -10.94   16.76    1.62  2.000 -1.000 0 1 0 2  0.449  0.449   6.68    0.00     0.00    0.00   1   15.00     0    0    0     3   0.0  1   1    7    0   0.000    0.000    0.000  1
 17   1    1  1 0 2    16  16    78  512  512     0.00000   6.32039 6.72553e-004  1981  3444  -5.42  -0.73   4.32  -11.01   17.76    1.52  2.000 -1.000 0 1 0 2  0.449  0.449   6.68    0.00     0.00    0.00   1   15.00     0    0    0     3   0.0  1   1    7    0   0.000    0.000    0.000  1
 18   1    1  1 0 2    17  16    78  512  512     0.00000   6.32039 6.72553e-004  1557  2706  -5.42  -0.73   4.32  -11.09   18.75    1.43  2.000 -1.000 0 1 0 2  0.449  0.449   6.68    0.00     0.00    0.00   1   15.00     0    0    0     3   0.0  1   1    7    0   0.000    0.000    0.000  1
 19   1    1  1 0 2    18  16    78  512  512     0.00000   6.32039 6.72553e-004  1452  2524  -5.42  -0.73   4.32  -11.16   19.74    1.33  2.000 -1.000 0 1 0 2  0.449  0.449   6.68    0.00     0.00    0.00   1   15.00     0    0    0     3   0.0  1   1    7    0   0.000    0.000    0.000  1
 20   1    1  1 0 2    19  16    78  512  512     0.00000   6.32039 6.72553e-004  1476  2566  -5.42  -0.73   4.32  -11.24   20.73    1.24  2.000 -1.000 0 1 0 2  0.449  0.449   6.68    0.00     0.00    0.00   1   15.00     0    0    0     3   0.0  1   1    7    0   0.000    0.000    0.000  1
 21   1    1  1 0 2    20  16    78  512  512     0.00000   6.32039 6.72553e-004  1532  2664  -5.42  -0.73   4.32  -11.31   21.73    1.15  2.000 -1.000 0 1 0 2  0.449  0.449   6.68    0.00     0.00    0.00   1   15.00     0    0    0     3   0.0  1   1    7    0   0.000    0.000    0.000  1
 22   1    1  1 0 2    21  16    78  512  512     0.00000   6.32039 6.72553e-004  1592  2768  -5.42  -0.73   4.32  -11.39   22.72    1.05  2.000 -1.000 0 1 0 2  0.449  0.449   6.68    0.00     0.00    0.00   1   15.00     0    0    0     3   0.0  1   1    7    0   0.000    0.000    0.000  1
 23   1    1  1 0 2    22  16    78  512  512     0.00000   6.32039 6.72553e-004  1619  2814  -5.42  -0.73   4.32  -11.46   23.71    0.96  2.000 -1.000 0 1 0 2  0.449  0.449   6.68    0.00     0.00    0.00   1   15.00     0    0    0     3   0.0  1   1    7    0   0.000    0.000    0.000  1
 24   1    1  1 0 2    23  16    78  512  512     0.00000   6.32039 6.72553e-004  1664  2892  -5.42  -0.73   4.32  -11.54   24.70    0.86  2.000 -1.000 0 1 0 2  0.449  0.449   6.68    0.00     0.00    0.00   1   15.00     0    0    0     3   0.0  1   1    7    0   0.000    0.000    0.000  1
 25   1    1  1 0 2    24  16    78  512  512     0.00000   6.32039 6.72553e-004  1731  3010  -5.42  -0.73   4.32  -11.61   25.70    0.77  2.000 -1.000 0 1 0 2  0.449  0.449   6.68    0.00     0.00    0.00   1   15.00     0    0    0     3   0.0  1   1    7    0   0.000    0.000    0.000  1
 26   1    1  1 0 2    25  16    78  512  512     0.00000   6.32039 6.72553e-004  1745  3034  -5.42  -0.73   4.32  -11.69   26.69    0.67  2.000 -1.000 0 1 0 2  0.449  0.449   6.68    0.00     0.00    0.00   1   15.00     0    0    0     3   0.0  1   1    7    0   0.000    0.000    0.000  1
 27   1    1  1 0 2    26  16    78  512  512     0.00000   6.32039 6.72553e-004  1674  2910  -5.42  -0.73   4.32  -11.76   27.68    0.58  2.000 -1.000 0 1 0 2  0.449  0.449   6.68    0.00     0.00    0.00   1   15.00     0    0    0     3   0.0  1   1    7    0   0.000    0.000    0.000  1
 28   1    1  1 0 2    27  16    78  512  512     0.00000   6.32039 6.72553e-004  1576  2739  -5.42  -0.73   4.32  -11.84   28.68    0.48  2.000 -1.000 0 1 0 2  0.449  0.449   6.68    0.00     0.00    0.00   1   15.00     0    0    0     3   0.0  1   1    7    0   0.000    0.000    0.000  1
 29   1    1  1 0 2    28  16    78  512  512     0.00000   6.32039 6.72553e-004  1575  2738  -5.42  -0.73   4.32  -11.91   29.67    0.39  2.000 -1.000 0 1 0 2  0.449  0.449   6.68    0.00     0.00    0.00   1   15.00     0    0    0     3   0.0  1   1    7    0   0.000    0.000    0.000  1
 30   1    1  1 0 2    29  16    78  512  512     0.00000   6.32039 6.72553e-004  1559  2709  -5.42  -0.73   4.32  -11.99   30.66    0.30  2.000 -1.000 0 1 0 2  0.449  0.449   6.68    0.00     0.00    0.00   1   15.00     0    0    0     3   0.0  1   1    7    0   0.000    0.000    0.000  1
 31   1    1  1 0 2    30  16    78  512  512     0.00000   6.32039 6.72553e-004  1450  2521  -5.42  -0.73   4.32  -12.06   31.65    0.20  2.000 -1.000 0 1 0 2  0.449  0.449   6.68    0.00     0.00    0.00   1   15.00     0    0    0     3   0.0  1   1    7    0   0.000    0.000    0.000  1
 32   1    1  1 0 2    31  16    78  512  512     0.00000   6.32039 6.72553e-004  1275  2217  -5.42  -0.73   4.32  -12.14   32.65    0.11  2.000 -1.000 0 1 0 2  0.449  0.449   6.68    0.00     0.00    0.00   1   15.00     0    0    0     3   0.0  1   1    7    0   0.000    0.000    0.000  1
 33   1    1  1 0 2    32  16    78  512  512     0.00000   6.32039 6.72553e-004  1219  2119  -5.42  -0.73   4.32  -12.21   33.64    0.01  2.000 -1.000 0 1 0 2  0.449  0.449   6.68    0.00     0.00    0.00   1   15.00     0    0    0     3   0.0  1   1    7    0   0.000    0.000    0.000  1
 34   1    1  1 0 2    33  16    78  512  512     0.00000   6.32039 6.72553e-004  1220  2121  -5.42  -0.73   4.32  -12.29   34.63   -0.08  2.000 -1.000 0 1 0 2  0.449  0.449   6.68    0.00     0.00    0.00   1   15.00     0    0    0     3   0.0  1   1    7    0   0.000    0.000    0.000  1
 35   1    1  1 0 2    34  16    78  512  512     0.00000   6.32039 6.72553e-004  1185  2060  -5.42  -0.73   4.32  -12.36   35.62   -0.18  2.000 -1.000 0 1 0 2  0.449  0.449   6.68    0.00     0.00    0.00   1   15.00     0    0    0     3   0.0  1   1    7    0   0.000    0.000    0.000  1
 36   1    1  1 0 2    35  16    78  512  512     0.00000   6.32039 6.72553e-004  1154  2006  -5.42  -0.73   4.32  -12.44   36.62   -0.27  2.000 -1.000 0 1 0 2  0.449  0.449   6.68    0.00     0.00    0.00   1   15.00     0    0    0     3   0.0  1   1    7    0   0.000    0.000    0.000  1
 37   1    1  1 0 2    36  16    78  512  512     0.00000   6.32039 6.72553e-004  1159  2014  -5.42  -0.73   4.32  -12.51   37.61   -0.36  2.000 -1.000 0 1 0 2  0.449  0.449   6.68    0.00     0.00    0.00   1   15.00     0    0    0     3   0.0  1   1    7    0   0.000    0.000    0.000  1
 38   1    1  1 0 2    37  16    78  512  512     0.00000   6.32039 6.72553e-004  1191  2071  -5.42  -0.73   4.32  -12.59   38.60   -0.46  2.000 -1.000 0 1 0 2  0.449  0.449   6.68    0.00     0.00    0.00   1   15.00     0    0    0     3   0.0  1   1    7    0   0.000    0.000    0.000  1
 39   1    1  1 0 2    38  16    78  512  512     0.00000   6.32039 6.72553e-004  1201  2088  -5.42  -0.73   4.32  -12.66   39.60   -0.55  2.000 -1.000 0 1 0 2  0.449  0.449   6.68    0.00     0.00    0.00   1   15.00     0    0    0     3   0.0  1   1    7    0   0.000    0.000    0.000  1
 40   1    1  1 0 2    39  16    78  512  512     0.00000   6.32039 6.72553e-004  1195  2078  -5.42  -0.73   4.32  -12.74   40.59   -0.65  2.000 -1.000 0 1 0 2  0.449  0.449   6.68    0.00     0.00    0.00   1   15.00     0    0    0     3   0.0  1   1    7    0   0.000    0.000    0.000  1
 41   1    1  1 0 2    40  16    78  512  512     0.00000   6.32039 6.72553e-004  1147  1993  -5.42  -0.73   4.32  -12.81   41.58   -0.74  2.000 -1.000 0 1 0 2  0.449  0.449   6.68    0.00     0.00    0.00   1   15.00     0    0    0     3   0.0  1   1    7    0   0.000    0.000    0.000  1
 42   1    1  1 0 2    41  16    78  512  512     0.00000   6.32039 6.72553e-004  1143  1987  -5.42  -0.73   4.32  -12.89   42.57   -0.84  2.000 -1.000 0 1 0 2  0.449  0.449   6.68    0.00     0.00    0.00   1   15.00     0    0    0     3   0.0  1   1    7    0   0.000    0.000    0.000  1
 43   1    1  1 0 2    42  16    78  512  512     0.00000   6.32039 6.72553e-004  1137  1977  -5.42  -0.73   4.32  -12.96   43.57   -0.93  2.000 -1.000 0 1 0 2  0.449  0.449   6.68    0.00     0.00    0.00   1   15.00     0    0    0     3   0.0  1   1    7    0   0.000    0.000    0.000  1
 44   1    1  1 0 2    43  16    78  512  512     0.00000   6.32039 6.72553e-004  1141  1983  -5.42  -0.73   4.32  -13.04   44.56   -1.03  2.000 -1.000 0 1 0 2  0.449  0.449   6.68    0.00     0.00    0.00   1   15.00     0    0    0     3   0.0  1   1    7    0   0.000    0.000    0.000  1
 45   1    1  1 0 2    44  16    78  512  512     0.00000   6.32039 6.72553e-004  1131  1967  -5.42  -0.73   4.32  -13.11   45.55   -1.12  2.000 -1.000 0 1 0 2  0.449  0.449   6.68    0.00     0.00    0.00   1   15.00     0    0    0     3   0.0  1   1    7    0   0.000    0.000    0.000  1
 46   1    1  1 0 2    45  16    78  512  512     0.00000   6.32039 6.72553e-004  1114  1937  -5.42  -0.73   4.32  -13.19   46.54   -1.21  2.000 -1.000 0 1 0 2  0.449  0.449   6.68    0.00     0.00    0.00   1   15.00     0    0    0     3   0.0  1   1    7    0   0.000    0.000    0.000  1
 47   1    1  1 0 2    46  16    78  512  512     0.00000   6.32039 6.72553e-004  1098  1908  -5.42  -0.73   4.32  -13.26   47.54   -1.31  2.000 -1.000 0 1 0 2  0.449  0.449   6.68    0.00     0.00    0.00   1   15.00     0    0    0     3   0.0  1   1    7    0   0.000    0.000    0.000  1
 48   1    1  1 0 2    47  16    78  512  512     0.00000   6.32039 6.72553e-004  1099  1910  -5.42  -0.73   4.32  -13.34   48.53   -1.40  2.000 -1.000 0 1 0 2  0.449  0.449   6.68    0.00     0.00    0.00   1   15.00     0    0    0     3   0.0  1   1    7    0   0.000    0.000    0.000  1
 49   1    1  1 0 2    48  16    78  512  512     0.00000   6.32039 6.72553e-004  1080  1877  -5.42  -0.73   4.32  -13.41   49.52   -1.50  2.000 -1.000 0 1 0 2  0.449  0.449   6.68    0.00     0.00    0.00   1   15.00     0    0    0     3   0.0  1   1    7    0   0.000    0.000    0.000  1
 50   1    1  1 0 2    49  16    78  512  512     0.00000   6.32039 6.72553e-004  1068  1857  -5.42  -0.73   4.32  -13.49   50.52   -1.59  2.000 -1.000 0 1 0 2  0.449  0.449   6.68    0.00     0.00    0.00   1   15.00     0    0    0     3   0.0  1   1    7    0   0.000    0.000    0.000  1
 51   1    1  1 0 2    50  16    78  512  512     0.00000   6.32039 6.72553e-004  1070  1860  -5.42  -0.73   4.32  -13.56   51.51   -1.69  2.000 -1.000 0 1 0 2  0.449  0.449   6.68    0.00     0.00    0.00   1   15.00     0    0    0     3   0.0  1   1    7    0   0.000    0.000    0.000  1
 52   1    1  1 0 2    51  16    78  512  512     0.00000   6.32039 6.72553e-004  1066  1853  -5.42  -0.73   4.32  -13.64   52.50   -1.78  2.000 -1.000 0 1 0 2  0.449  0.449   6.68    0.00     0.00    0.00   1   15.00     0    0    0     3   0.0  1   1    7    0   0.000    0.000    0.000  1
 53   1    1  1 0 2    52  16    78  512  512     0.00000   6.32039 6.72553e-004  1056  1836  -5.42  -0.73   4.32  -13.71   53.49   -1.87  2.000 -1.000 0 1 0 2  0.449  0.449   6.68    0.00     0.00    0.00   1   15.00     0    0    0     3   0.0  1   1    7    0   0.000    0.000    0.000  1
 54   1    1  1 0 2    53  16    78  512  512     0.00000   6.32039 6.72553e-004  1042  1812  -5.42  -0.73   4.32  -13.79   54.49   -1.97  2.000 -1.000 0 1 0 2  0.449  0.449   6.68    0.00     0.00    0.00   1   15.00     0    0    0     3   0.0  1   1    7    0   0.000    0.000    0.000  1
 55   1    1  1 0 2    54  16    78  512  512     0.00000   6.32039 6.72553e-004  1039  1807  -5.42  -0.73   4.32  -13.86   55.48   -2.06  2.000 -1.000 0 1 0 2  0.449  0.449   6.68    0.00     0.00    0.00   1   15.00     0    0    0     3   0.0  1   1    7    0   0.000    0.000    0.000  1
 56   1    1  1 0 2    55  16    78  512  512     0.00000   6.32039 6.72553e-004  1032  1794  -5.42  -0.73   4.32  -13.94   56.47   -2.16  2.000 -1.000 0 1 0 2  0.449  0.449   6.68    0.00     0.00    0.00   1   15.00     0    0    0     3   0.0  1   1    7    0   0.000    0.000    0.000  1
 57   1    1  1 0 2    56  16    78  512  512     0.00000   6.32039 6.72553e-004  1036  1800  -5.42  -0.73   4.32  -14.01   57.46   -2.25  2.000 -1.000 0 1 0 2  0.449  0.449   6.68    0.00     0.00    0.00   1   15.00     0    0    0     3   0.0  1   1    7    0   0.000    0.000    0.000  1
 58   1    1  1 0 2    57  16    78  512  512     0.00000   6.32039 6.72553e-004  1029  1788  -5.42  -0.73   4.32  -14.09   58.46   -2.35  2.000 -1.000 0 1 0 2  0.449  0.449   6.68    0.00     0.00    0.00   1   15.00     0    0    0     3   0.0  1   1    7    0   0.000    0.000    0.000  1
 59   1    1  1 0 2    58  16    78  512  512     0.00000   6.32039 6.72553e-004  1021  1774  -5.42  -0.73   4.32  -14.16   59.45   -2.44  2.000 -1.000 0 1 0 2  0.449  0.449   6.68    0.00     0.00    0.00   1   15.00     0    0    0     3   0.0  1   1    7    0   0.000    0.000    0.000  1
 60   1    1  1 0 2    59  16    78  512  512     0.00000   6.32039 6.72553e-004  1009  1753  -5.42  -0.73   4.32  -14.24   60.44   -2.54  2.000 -1.000 0 1 0 2  0.449  0.449   6.68    0.00     0.00    0.00   1   15.00     0    0    0     3   0.0  1   1    7    0   0.000    0.000    0.000  1
 61   1    1  1 0 2    60  16    78  512  512     0.00000   6.32039 6.72553e-004  1007  1750  -5.42  -0.73   4.32  -14.31   61.44   -2.63  2.000 -1.000 0 1 0 2  0.449  0.449   6.68    0.00     0.00    0.00   1   15.00     0    0    0     3   0.0  1   1    7    0   0.000    0.000    0.000  1
 62   1    1  1 0 2    61  16    78  512  512     0.00000   6.32039 6.72553e-004  1005  1747  -5.42  -0.73   4.32  -14.39   62.43   -2.72  2.000 -1.000 0 1 0 2  0.449  0.449   6.68    0.00     0.00    0.00   1   15.00     0    0    0     3   0.0  1   1    7    0   0.000    0.000    0.000  1
 63   1    1  1 0 2    62  16    78  512  512     0.00000   6.32039 6.72553e-004  1009  1755  -5.42  -0.73   4.32  -14.46   63.42   -2.82  2.000 -1.000 0 1 0 2  0.449  0.449   6.68    0.00     0.00    0.00   1   15.00     0    0    0     3   0.0  1   1    7    0   0.000    0.000    0.000  1
 64   1    1  1 0 2    63  16    78  512  512     0.00000   6.32039 6.72553e-004  1015  1765  -5.42  -0.73   4.32  -14.54   64.41   -2.91  2.000 -1.000 0 1 0 2  0.449  0.449   6.68    0.00     0.00    0.00   1   15.00     0    0    0     3   0.0  1   1    7    0   0.000    0.000    0.000  1
 65   1    1  1 0 2    64  16    78  512  512     0.00000   6.32039 6.72553e-004  1008  1752  -5.42  -0.73   4.32  -14.61   65.41   -3.01  2.000 -1.000 0 1 0 2  0.449  0.449   6.68    0.00     0.00    0.00   1   15.00     0    0    0     3   0.0  1   1    7    0   0.000    0.000    0.000  1
 66   1    1  1 0 2    65  16    78  512  512     0.00000   6.32039 6.72553e-004   989  1720  -5.42  -0.73   4.32  -14.69   66.40   -3.10  2.000 -1.000 0 1 0 2  0.449  0.449   6.68    0.00     0.00    0.00   1   15.00     0    0    0     3   0.0  1   1    7    0   0.000    0.000    0.000  1
 67   1    1  1 0 2    66  16    78  512  512     0.00000   6.32039 6.72553e-004   981  1706  -5.42  -0.73   4.32  -14.76   67.39   -3.20  2.000 -1.000 0 1 0 2  0.449  0.449   6.68    0.00     0.00    0.00   1   15.00     0    0    0     3   0.0  1   1    7    0   0.000    0.000    0.000  1
 68   1    1  1 0 2    67  16    78  512  512     0.00000   6.32039 6.72553e-004   970  1685  -5.42  -0.73   4.32  -14.84   68.38   -3.29  2.000 -1.000 0 1 0 2  0.449  0.449   6.68    0.00     0.00    0.00   1   15.00     0    0    0     3   0.0  1   1    7    0   0.000    0.000    0.000  1
 69   1    1  1 0 2    68  16    78  512  512     0.00000   6.32039 6.72553e-004   960  1669  -5.42  -0.73   4.32  -14.91   69.38   -3.38  2.000 -1.000 0 1 0 2  0.449  0.449   6.68    0.00     0.00    0.00   1   15.00     0    0    0     3   0.0  1   1    7    0   0.000    0.000    0.000  1
 70   1    1  1 0 2    69  16    78  512  512     0.00000   6.32039 6.72553e-004   955  1659  -5.42  -0.73   4.32  -14.99   70.37   -3.48  2.000 -1.000 0 1 0 2  0.449  0.449   6.68    0.00     0.00    0.00   1   15.00     0    0    0     3   0.0  1   1    7    0   0.000    0.000    0.000  1
 71   1    1  1 0 2    70  16    78  512  512     0.00000   6.32039 6.72553e-004   948  1649  -5.42  -0.73   4.32  -15.06   71.36   -3.57  2.000 -1.000 0 1 0 2  0.449  0.449   6.68    0.00     0.00    0.00   1   15.00     0    0    0     3   0.0  1   1    7    0   0.000    0.000    0.000  1
 72   1    1  1 0 2    71  16    78  512  512     0.00000   6.32039 6.72553e-004   945  1643  -5.42  -0.73   4.32  -15.14   72.35   -3.67  2.000 -1.000 0 1 0 2  0.449  0.449   6.68    0.00     0.00    0.00   1   15.00     0    0    0     3   0.0  1   1    7    0   0.000    0.000    0.000  1
 73   1    1  1 0 2    72  16    78  512  512     0.00000   6.32039 6.72553e-004   942  1638  -5.42  -0.73   4.32  -15.21   73.35   -3.76  2.000 -1.000 0 1 0 2  0.449  0.449   6.68    0.00     0.00    0.00   1   15.00     0    0    0     3   0.0  1   1    7    0   0.000    0.000    0.000  1
 74   1    1  1 0 2    73  16    78  512  512     0.00000   6.32039 6.72553e-004   933  1622  -5.42  -0.73   4.32  -15.29   74.34   -3.86  2.000 -1.000 0 1 0 2  0.449  0.449   6.68    0.00     0.00    0.00   1   15.00     0    0    0     3   0.0  1   1    7    0   0.000    0.000    0.000  1
 75   1    1  1 0 2    74  16    78  512  512     0.00000   6.32039 6.72553e-004   928  1613  -5.42  -0.73   4.32  -15.36   75.33   -3.95  2.000 -1.000 0 1 0 2  0.449  0.449   6.68    0.00     0.00    0.00   1   15.00     0    0    0     3   0.0  1   1    7    0   0.000    0.000    0.000  1
 76   1    1  1 0 2    75  16    78  512  512     0.00000   6.32039 6.72553e-004   922  1603  -5.42  -0.73   4.32  -15.44   76.33   -4.05  2.000 -1.000 0 1 0 2  0.449  0.449   6.68    0.00     0.00    0.00   1   15.00     0    0    0     3   0.0  1   1    7    0   0.000    0.000    0.000  1
 77   1    1  1 0 2    76  16    78  512  512     0.00000   6.32039 6.72553e-004   909  1580  -5.42  -0.73   4.32  -15.51   77.32   -4.14  2.000 -1.000 0 1 0 2  0.449  0.449   6.68    0.00     0.00    0.00   1   15.00     0    0    0     3   0.0  1   1    7    0   0.000    0.000    0.000  1
 78   1    1  1 0 2    77  16    78  512  512     0.00000   6.32039 6.72553e-004   902  1567  -5.42  -0.73   4.32  -15.59   78.31   -4.23  2.000 -1.000 0 1 0 2  0.449  0.449   6.68    0.00     0.00    0.00   1   15.00     0    0    0     3   0.0  1   1    7    0   0.000    0.000    0.000  1
 79   1    1  1 0 2    78  16    78  512  512     0.00000   6.32039 6.72553e-004   895  1556  -5.42  -0.73   4.32  -15.66   79.30   -4.33  2.000 -1.000 0 1 0 2  0.449  0.449   6.68    0.00     0.00    0.00   1   15.00     0    0    0     3   0.0  1   1    7    0   0.000    0.000    0.000  1
 80   1    1  1 0 2    79  16    78  512  512     0.00000   6.32039 6.72553e-004   891  1549  -5.42  -0.73   4.32  -15.74   80.30   -4.42  2.000 -1.000 0 1 0 2  0.449  0.449   6.68    0.00     0.00    0.00   1   15.00     0    0    0     3   0.0  1   1    7    0   0.000    0.000    0.000  1
 81   1    1  1 0 2    80  16    78  512  512     0.00000   6.32039 6.72553e-004   884  1537  -5.42  -0.73   4.32  -15.81   81.29   -4.52  2.000 -1.000 0 1 0 2  0.449  0.449   6.68    0.00     0.00    0.00   1   15.00     0    0    0     3   0.0  1   1    7    0   0.000    0.000    0.000  1
 82   1    1  1 0 2    81  16    78  512  512     0.00000   6.32039 6.72553e-004   879  1529  -5.42  -0.73   4.32  -15.89   82.28   -4.61  2.000 -1.000 0 1 0 2  0.449  0.449   6.68    0.00     0.00    0.00   1   15.00     0    0    0     3   0.0  1   1    7    0   0.000    0.000    0.000  1
 83   1    1  1 0 2    82  16    78  512  512     0.00000   6.32039 6.72553e-004   876  1523  -5.42  -0.73   4.32  -15.96   83.27   -4.71  2.000 -1.000 0 1 0 2  0.449  0.449   6.68    0.00     0.00    0.00   1   15.00     0    0    0     3   0.0  1   1    7    0   0.000    0.000    0.000  1
 84   1    1  1 0 2    83  16    78  512  512     0.00000   6.32039 6.72553e-004   869  1511  -5.42  -0.73   4.32  -16.04   84.27   -4.80  2.000 -1.000 0 1 0 2  0.449  0.449   6.68    0.00     0.00    0.00   1   15.00     0    0    0     3   0.0  1   1    7    0   0.000    0.000    0.000  1
